PE UV                   SPECTRUM    ASCII       PEDS        1.5         
  -1
Z151624C.SP
96/07/31
13:36:31.00
96/07/31
13:36:31.00
FINN POULSEN
Z-FILTER NO.15160Y24. PRODUKTIONSUGE 26/96. MRK.C
350.000000
1









4444

SCAN
1
1


0.0

2.00
MANUAL



UV/VIS




































#HDR
-1
-1
#GR
NM
%T
0.00002384185791015625
0.0
1100.000000
2.500000
301
8
85.084391
-0.028015
#DATA
1100.000000	47.021909 
1097.500000	45.476720 
1095.000000	44.502183 
1092.500000	43.574550 
1090.000000	42.327475 
1087.500000	40.151535 
1085.000000	40.405641 
1082.500000	41.280158 
1080.000000	40.130505 
1077.500000	37.140489 
1075.000000	35.851729 
1072.500000	33.970372 
1070.000000	34.952289 
1067.500000	34.194585 
1065.000000	33.196402 
1062.500000	32.500268 
1060.000000	31.849966 
1057.500000	31.103355 
1055.000000	30.225790 
1052.500000	29.566584 
1050.000000	28.248482 
1047.500000	27.551236 
1045.000000	27.597211 
1042.500000	27.341357 
1040.000000	27.331682 
1037.500000	25.904843 
1035.000000	25.428862 
1032.500000	24.478942 
1030.000000	23.765099 
1027.500000	25.057211 
1025.000000	25.504601 
1022.500000	23.755211 
1020.000000	23.123236 
1017.500000	24.023709 
1015.000000	24.873123 
1012.500000	24.815377 
1010.000000	23.037825 
1007.500000	23.061497 
1005.000000	25.028604 
1002.500000	24.983378 
1000.000000	23.354717 
997.500000	 22.989707 
995.000000	 23.686879 
992.500000	 24.202736 
990.000000	 23.971623 
987.500000	 23.865210 
985.000000	 24.372393 
982.500000	 25.017412 
980.000000	 25.694908 
977.500000	 26.162570 
975.000000	 26.086256 
972.500000	 26.240833 
970.000000	 26.414392 
967.500000	 26.969342 
965.000000	 27.673690 
962.500000	 28.339897 
960.000000	 28.763828 
957.500000	 28.717181 
955.000000	 29.276350 
952.500000	 29.756357 
950.000000	 30.324602 
947.500000	 30.824095 
945.000000	 30.524883 
942.500000	 31.206372 
940.000000	 30.630390 
937.500000	 31.295292 
935.000000	 31.729840 
932.500000	 31.682267 
930.000000	 31.436205 
927.500000	 31.653290 
925.000000	 31.173375 
922.500000	 31.188844 
920.000000	 31.250166 
917.500000	 30.853409 
915.000000	 30.539211 
912.500000	 30.212697 
910.000000	 29.791930 
907.500000	 29.476058 
905.000000	 28.886916 
902.500000	 28.234545 
900.000000	 27.772705 
897.500000	 27.244174 
895.000000	 26.631629 
892.500000	 26.274172 
890.000000	 25.765251 
887.500000	 24.800301 
885.000000	 23.991632 
882.500000	 23.440423 
880.000000	 22.858057 
877.500000	 21.560283 
875.000000	 20.639340 
872.500000	 19.423978 
870.000000	 18.344775 
867.500000	 17.397220 
865.000000	 15.906295 
862.500000	 14.698596 
860.000000	 13.553555 
857.500000	 12.228546 
855.000000	 11.178507 
852.500000	 10.285095 
850.000000	 9.360426  
847.500000	 8.465080  
845.000000	 7.638542  
842.500000	 6.813260  
840.000000	 6.146834  
837.500000	 5.508615  
835.000000	 4.965071  
832.500000	 4.426010  
830.000000	 3.942642  
827.500000	 3.464409  
825.000000	 3.137702  
822.500000	 2.819454  
820.000000	 2.540010  
817.500000	 2.277669  
815.000000	 2.082752  
812.500000	 1.899528  
810.000000	 1.696615  
807.500000	 1.581379  
805.000000	 1.438407  
802.500000	 1.296600  
800.000000	 1.203409  
797.500000	 1.109376  
795.000000	 0.990568  
792.500000	 0.903387  
790.000000	 0.803235  
787.500000	 0.814005  
785.000000	 0.739335  
782.500000	 0.710207  
780.000000	 0.640972  
777.500000	 0.629719  
775.000000	 0.562783  
772.500000	 0.515507  
770.000000	 0.521297  
767.500000	 0.485125  
765.000000	 0.443786  
762.500000	 0.418398  
760.000000	 0.393075  
757.500000	 0.360043  
755.000000	 0.379601  
752.500000	 0.340430  
750.000000	 0.304087  
747.500000	 0.362581  
745.000000	 0.334952  
742.500000	 0.256803  
740.000000	 0.245631  
737.500000	 0.267827  
735.000000	 0.281894  
732.500000	 0.245638  
730.000000	 0.231591  
727.500000	 0.203711  
725.000000	 0.200814  
722.500000	 0.156241  
720.000000	 0.125505  
717.500000	 0.206415  
715.000000	 0.145121  
712.500000	 0.103199  
710.000000	 0.092024  
707.500000	 0.097710  
705.000000	 0.125649  
702.500000	 0.050275  
700.000000	 0.075343  
697.500000	 0.094924  
695.000000	 0.058665  
692.500000	 0.108786  
690.000000	 0.013941  
687.500000	 0.072496  
685.000000	 0.100446  
682.500000	 0.122706  
680.000000	 0.145158  
677.500000	 0.175732  
675.000000	 0.119967  
672.500000	 0.184110  
670.000000	 0.234420  
667.500000	 0.223569  
665.000000	 0.231960  
662.500000	 0.192807  
660.000000	 0.184455  
657.500000	 0.106192  
655.000000	 0.069873  
652.500000	 0.025162  
650.000000	 0.072658  
647.500000	 0.047548  
645.000000	 0.033573  
642.500000	 0.022380  
640.000000	 0.041934  
637.500000	 0.013994  
635.000000	 -0.005598 
632.500000	 0.025179  
630.000000	 0.019591  
627.500000	 0.014005  
625.000000	 -0.008401 
622.500000	 -0.002801 
620.000000	 0.050407  
617.500000	 0.019608  
615.000000	 0.016803  
612.500000	 -0.028015 
610.000000	 -0.002801 
607.500000	 0.042046  
605.000000	 0.022433  
602.500000	 0.002805  
600.000000	 0.014025  
597.500000	 -0.005609 
595.000000	 0.030858  
592.500000	 0.000000  
590.000000	 0.025244  
587.500000	 0.014030  
585.000000	 0.005614  
582.500000	 0.042112  
580.000000	 0.050537  
577.500000	 0.053367  
575.000000	 0.044970  
572.500000	 0.028110  
570.000000	 0.092746  
567.500000	 0.084357  
565.000000	 0.059119  
562.500000	 0.033782  
560.000000	 0.045070  
557.500000	 0.050728  
555.000000	 0.098661  
552.500000	 0.112841  
550.000000	 0.146664  
547.500000	 0.160876  
545.000000	 0.163744  
542.500000	 0.229046  
540.000000	 0.305585  
537.500000	 0.365180  
535.000000	 0.427810  
532.500000	 0.595052  
530.000000	 0.783000  
527.500000	 1.007263  
525.000000	 1.352654  
522.500000	 1.799682  
520.000000	 2.295471  
517.500000	 2.905780  
515.000000	 3.595247  
512.500000	 4.337543  
510.000000	 5.108965  
507.500000	 5.924571  
505.000000	 6.871198  
502.500000	 7.979051  
500.000000	 9.215959  
497.500000	 10.599574 
495.000000	 12.161283 
492.500000	 13.885329 
490.000000	 15.664366 
487.500000	 17.436911 
485.000000	 19.228970 
482.500000	 21.117019 
480.000000	 23.434309 
477.500000	 26.291663 
475.000000	 29.961647 
472.500000	 34.860843 
470.000000	 41.147166 
467.500000	 48.719848 
465.000000	 57.226775 
462.500000	 65.833197 
460.000000	 73.225780 
457.500000	 78.611337 
455.000000	 81.789102 
452.500000	 83.407085 
450.000000	 84.174112 
447.500000	 84.612018 
445.000000	 84.934515 
442.500000	 85.084391 
440.000000	 85.043157 
437.500000	 84.800726 
435.000000	 83.993072 
432.500000	 82.687601 
430.000000	 80.736847 
427.500000	 77.896387 
425.000000	 73.889011 
422.500000	 68.465596 
420.000000	 61.621383 
417.500000	 53.490802 
415.000000	 44.716005 
412.500000	 36.117598 
410.000000	 28.277776 
407.500000	 21.128850 
405.000000	 14.787339 
402.500000	 9.574906  
400.000000	 5.771024  
397.500000	 3.293659  
395.000000	 1.884980  
392.500000	 1.102245  
390.000000	 0.698744  
387.500000	 0.506821  
385.000000	 0.336764  
382.500000	 0.213675  
380.000000	 0.183556  
377.500000	 0.188648  
375.000000	 0.155652  
372.500000	 0.125972  
370.000000	 0.093165  
367.500000	 0.046582  
365.000000	 0.030115  
362.500000	 0.027365  
360.000000	 0.016426  
357.500000	 -0.008212 
355.000000	 0.000000  
352.500000	 0.027358  
350.000000	 -0.005474 

